z, Voltage (V), Electric Field (Newton/Coulomb)
0.00470164 , 2000 , 0
0.00469664 , 2000 , -904.721
0.00469164 , 1999.99 , -1809.53
0.00468664 , 1999.98 , -2714.25
0.00468164 , 1999.96 , -3619.05
0.00467664 , 1999.94 , -4523.77
0.00467164 , 1999.92 , -5428.58
0.00466664 , 1999.89 , -6333.3
0.00466164 , 1999.86 , -7238.02
0.00465664 , 1999.82 , -8142.83
0.00465164 , 1999.77 , -9047.55
0.00464664 , 1999.73 , -9952.35
0.00464164 , 1999.67 , -10857.1
0.00463664 , 1999.62 , -11761.8
0.00463164 , 1999.56 , -12666.6
0.00462664 , 1999.49 , -13571.3
0.00462164 , 1999.42 , -14476.1
0.00461664 , 1999.35 , -15380.8
0.00461164 , 1999.27 , -16285.7
0.00460664 , 1999.18 , -17190.4
0.00460164 , 1999.1 , -18095.1
0.00459664 , 1999 , -18999.9
0.00459164 , 1998.91 , -19904.6
0.00458664 , 1998.8 , -20809.4
0.00458164 , 1998.7 , -21714.2
0.00457664 , 1998.59 , -22618.9
0.00457164 , 1998.47 , -23523.7
0.00456664 , 1998.35 , -24428.4
0.00456164 , 1998.23 , -25333.2
0.00455664 , 1998.1 , -26237.9
0.00455164 , 1997.96 , -27142.7
0.00454664 , 1997.83 , -28047.5
0.00454164 , 1997.68 , -28952.2
0.00453664 , 1997.54 , -29857
0.00453164 , 1997.39 , -30761.7
0.00452664 , 1997.23 , -31666.5
0.00452164 , 1997.07 , -32571.2
0.00451664 , 1996.9 , -33475.9
0.00451164 , 1996.73 , -34380.8
0.00450664 , 1996.56 , -35285.5
0.00450164 , 1996.38 , -36190.3
0.00449664 , 1996.2 , -37095
0.00449164 , 1996.01 , -37999.8
0.00448664 , 1995.82 , -38904.5
0.00448164 , 1995.62 , -39809.2
0.00447664 , 1995.42 , -40714.1
0.00447164 , 1995.21 , -41618.8
0.00446664 , 1995 , -42523.6
0.00446164 , 1994.79 , -43428.3
0.00445664 , 1994.57 , -44333.1
0.00445164 , 1994.35 , -45237.8
0.00444664 , 1994.12 , -46142.5
0.00444164 , 1993.88 , -47047.4
0.00443664 , 1993.65 , -47952.1
0.00443164 , 1993.4 , -48856.9
0.00442664 , 1993.16 , -49761.6
0.00442164 , 1992.91 , -50666.3
0.00441664 , 1992.65 , -51571.1
0.00441164 , 1992.39 , -52475.8
0.00440664 , 1992.13 , -53380.7
0.00440164 , 1991.86 , -54285.4
0.00439664 , 1991.58 , -55190.1
0.00439164 , 1991.31 , -56094.9
0.00438664 , 1991.02 , -56999.6
0.00438164 , 1990.74 , -57904.4
0.00437664 , 1990.44 , -58809.1
0.00437164 , 1990.15 , -59714
0.00436664 , 1989.85 , -60618.7
0.00436164 , 1989.54 , -61523.4
0.00435664 , 1989.23 , -62428.2
0.00435164 , 1988.92 , -63332.9
0.00434664 , 1988.6 , -64237.7
0.00434164 , 1988.27 , -65142.5
0.00433664 , 1987.95 , -66047.3
0.00433164 , 1987.61 , -66952
0.00432664 , 1987.28 , -67856.7
0.00432164 , 1986.94 , -68761.5
0.00431664 , 1986.59 , -69666.2
0.00431164 , 1986.24 , -70571
0.00430664 , 1985.88 , -71475.8
0.00430164 , 1985.52 , -72380.5
0.00429664 , 1985.16 , -73285.3
0.00429164 , 1984.79 , -74190
0.00428664 , 1984.42 , -75094.8
0.00428164 , 1984.04 , -75999.5
0.00427664 , 1983.66 , -76904.2
0.00427164 , 1983.27 , -77809.1
0.00426664 , 1982.88 , -78713.8
0.00426164 , 1982.48 , -79618.6
0.00425664 , 1982.08 , -80523.3
0.00425164 , 1981.68 , -81428.1
0.00424664 , 1981.27 , -82332.8
0.00424164 , 1980.86 , -83237.5
0.00423664 , 1980.44 , -84142.4
0.00423164 , 1980.01 , -85047.1
0.00422664 , 1979.59 , -85951.9
0.00422164 , 1979.15 , -86856.6
0.00421664 , 1978.72 , -87761.4
0.00421164 , 1978.28 , -88666.1
0.00420664 , 1977.83 , -89570.9
0.00420164 , 1977.38 , -90475.7
0.00419664 , 1976.93 , -91380.4
0.00419164 , 1976.47 , -92285.2
0.00418664 , 1976 , -93189.9
0.00418164 , 1975.54 , -94094.7
0.00417664 , 1975.06 , -94999.4
0.00417164 , 1974.59 , -95904.1
0.00416664 , 1974.1 , -96809
0.00416164 , 1973.62 , -97713.7
0.00415664 , 1973.13 , -98618.4
0.00415164 , 1972.63 , -99523.2
0.00414664 , 1972.13 , -100428
0.00414164 , 1971.63 , -101333
0.00413664 , 1971.12 , -102237
0.00413164 , 1970.6 , -103142
0.00412664 , 1970.09 , -104047
0.00412164 , 1969.56 , -104952
0.00411664 , 1969.04 , -105857
0.00411164 , 1968.51 , -106761
0.00410664 , 1967.97 , -107666
0.00410164 , 1967.43 , -108571
0.00409664 , 1966.88 , -109476
0.00409164 , 1966.33 , -110380
0.00408664 , 1965.78 , -111285
0.00408164 , 1965.22 , -112190
0.00407664 , 1964.66 , -113095
0.00407164 , 1964.09 , -113999
0.00406664 , 1963.52 , -114904
0.00406164 , 1962.94 , -115809
0.00405664 , 1962.36 , -116714
0.00405164 , 1961.77 , -117618
0.00404664 , 1961.18 , -118523
0.00404164 , 1960.59 , -119428
0.00403664 , 1959.99 , -120333
0.00403164 , 1959.39 , -121237
0.00402664 , 1958.78 , -122142
0.00402164 , 1958.16 , -123047
0.00401664 , 1957.55 , -123952
0.00401164 , 1956.92 , -124856
0.00400664 , 1956.3 , -125761
0.00400164 , 1955.67 , -126666
0.00399664 , 1955.03 , -127571
0.00399164 , 1954.39 , -128475
0.00398664 , 1953.75 , -129380
0.00398164 , 1953.1 , -130285
0.00397664 , 1952.44 , -131190
0.00397164 , 1951.79 , -132094
0.00396664 , 1951.12 , -132999
0.00396164 , 1950.46 , -133904
0.00395664 , 1949.78 , -134809
0.00395164 , 1949.11 , -135713
0.00394664 , 1948.43 , -136618
0.00394164 , 1947.74 , -137523
0.00393664 , 1947.05 , -138428
0.00393164 , 1946.36 , -139332
0.00392664 , 1945.66 , -140237
0.00392164 , 1944.95 , -141142
0.00391664 , 1944.25 , -142047
0.00391164 , 1943.53 , -142952
0.00390664 , 1942.82 , -143856
0.00390164 , 1942.1 , -144761
0.00389664 , 1941.37 , -145666
0.00389164 , 1940.64 , -146571
0.00388664 , 1939.9 , -147475
0.00388164 , 1939.16 , -148380
0.00387664 , 1938.42 , -149285
0.00387164 , 1937.67 , -150190
0.00386664 , 1936.92 , -151094
0.00386164 , 1936.16 , -151999
0.00385664 , 1935.4 , -152904
0.00385164 , 1934.63 , -153809
0.00384664 , 1933.86 , -154713
0.00384164 , 1933.08 , -155618
0.00383664 , 1932.3 , -156523
0.00383164 , 1931.52 , -157428
0.00382664 , 1930.73 , -158332
0.00382164 , 1929.94 , -159237
0.00381664 , 1929.14 , -160142
0.00381164 , 1928.33 , -161047
0.00380664 , 1927.53 , -161951
0.00380164 , 1926.71 , -162856
0.00379664 , 1925.9 , -163761
0.00379164 , 1925.08 , -164666
0.00378664 , 1924.25 , -165570
0.00378164 , 1923.42 , -166475
0.00377664 , 1922.59 , -167380
0.00377164 , 1921.75 , -168285
0.00376664 , 1920.9 , -169189
0.00376164 , 1920.06 , -170094
0.00375664 , 1919.2 , -170999
0.00375164 , 1918.35 , -171904
0.00374664 , 1917.48 , -172808
0.00374164 , 1916.62 , -173713
0.00373664 , 1915.75 , -174618
0.00373164 , 1914.87 , -175523
0.00372664 , 1913.99 , -176428
0.00372164 , 1913.11 , -177332
0.00371664 , 1912.22 , -178237
0.00371164 , 1911.32 , -179142
0.00370664 , 1910.43 , -180046
0.00370164 , 1909.52 , -180951
0.00369664 , 1908.62 , -181856
0.00369164 , 1907.71 , -182761
0.00368664 , 1906.79 , -183666
0.00368164 , 1905.87 , -184570
0.00367664 , 1904.94 , -185475
0.00367164 , 1904.01 , -186380
0.00366664 , 1903.08 , -187285
0.00366164 , 1902.14 , -188189
0.00365664 , 1901.2 , -189094
0.00365164 , 1900.25 , -189999
0.00364664 , 1899.3 , -190904
0.00364164 , 1898.34 , -191808
0.00363664 , 1897.38 , -192713
0.00363164 , 1896.41 , -193618
0.00362664 , 1895.44 , -194523
0.00362164 , 1894.47 , -195427
0.00361664 , 1893.49 , -196332
0.00361164 , 1892.51 , -197237
0.00360664 , 1891.52 , -198142
0.00360164 , 1890.52 , -199046
0.00359664 , 1889.53 , -199951
0.00359164 , 1888.52 , -200856
0.00358664 , 1887.52 , -201761
0.00358164 , 1886.51 , -202665
0.00357664 , 1885.49 , -203570
0.00357164 , 1884.47 , -204475
0.00356664 , 1883.45 , -205380
0.00356164 , 1882.42 , -206284
0.00355664 , 1881.38 , -207189
0.00355164 , 1880.35 , -208094
0.00354664 , 1879.3 , -208999
0.00354164 , 1878.26 , -209903
0.00353664 , 1877.2 , -210808
0.00353164 , 1876.15 , -211713
0.00352664 , 1875.09 , -212618
0.00352164 , 1874.02 , -213523
0.00351664 , 1872.95 , -214427
0.00351164 , 1871.88 , -215332
0.00350664 , 1870.8 , -216237
0.00350164 , 1869.72 , -217142
0.00349664 , 1868.63 , -218046
0.00349164 , 1867.53 , -218951
0.00348664 , 1866.44 , -219856
0.00348164 , 1865.34 , -220761
0.00347664 , 1864.23 , -221665
0.00347164 , 1863.12 , -222570
0.00346664 , 1862 , -223475
0.00346164 , 1860.88 , -224380
0.00345664 , 1859.76 , -225284
0.00345164 , 1858.63 , -226189
0.00344664 , 1857.5 , -227094
0.00344164 , 1856.36 , -227999
0.00343664 , 1855.22 , -228903
0.00343164 , 1854.07 , -229808
0.00342664 , 1852.92 , -230713
0.00342164 , 1851.76 , -231618
0.00341664 , 1850.6 , -232522
0.00341164 , 1849.44 , -233427
0.00340664 , 1848.27 , -234332
0.00340164 , 1847.1 , -235237
0.00339664 , 1845.92 , -236141
0.00339164 , 1844.73 , -237046
0.00338664 , 1843.55 , -237951
0.00338164 , 1842.36 , -238856
0.00337664 , 1841.16 , -239760
0.00337164 , 1839.96 , -240665
0.00336664 , 1838.75 , -241570
0.00336164 , 1837.54 , -242475
0.00335664 , 1836.33 , -243379
0.00335164 , 1835.11 , -244284
0.00334664 , 1833.88 , -245189
0.00334164 , 1832.66 , -246094
0.00333664 , 1831.42 , -246998
0.00333164 , 1830.19 , -247903
0.00332664 , 1828.94 , -248808
0.00332164 , 1827.7 , -249713
0.00331664 , 1826.45 , -250618
0.00331164 , 1825.19 , -251522
0.00330664 , 1823.93 , -252427
0.00330164 , 1822.67 , -253332
0.00329664 , 1821.4 , -254237
0.00329164 , 1820.13 , -255141
0.00328664 , 1818.85 , -256046
0.00328164 , 1817.56 , -256951
0.00327664 , 1816.28 , -257856
0.00327164 , 1814.99 , -258760
0.00326664 , 1813.69 , -259665
0.00326164 , 1812.39 , -260570
0.00325664 , 1811.08 , -261475
0.00325164 , 1809.78 , -262379
0.00324664 , 1808.46 , -263284
0.00324164 , 1807.14 , -264189
0.00323664 , 1805.82 , -265094
0.00323164 , 1804.49 , -265998
0.00322664 , 1803.16 , -266903
0.00322164 , 1801.82 , -267808
0.00321664 , 1800.48 , -268713
0.00321164 , 1799.14 , -269617
0.00320664 , 1797.78 , -270522
0.00320164 , 1796.43 , -271427
0.00319664 , 1795.07 , -272332
0.00319164 , 1793.71 , -273236
0.00318664 , 1792.34 , -274141
0.00318164 , 1790.97 , -275046
0.00317664 , 1789.59 , -275951
0.00317164 , 1788.21 , -276855
0.00316664 , 1786.82 , -277760
0.00316164 , 1785.43 , -278665
0.00315664 , 1784.03 , -279570
0.00315164 , 1782.63 , -280474
0.00314664 , 1781.23 , -281379
0.00314164 , 1779.82 , -282284
0.00313664 , 1778.4 , -283189
0.00313164 , 1776.99 , -284093
0.00312664 , 1775.56 , -284998
0.00312164 , 1774.14 , -285903
0.00311664 , 1772.7 , -286808
0.00311164 , 1771.27 , -287713
0.00310664 , 1769.83 , -288617
0.00310164 , 1768.38 , -289522
0.00309664 , 1766.93 , -290427
0.00309164 , 1765.48 , -291332
0.00308664 , 1764.02 , -292236
0.00308164 , 1762.56 , -293141
0.00307664 , 1761.09 , -294046
0.00307164 , 1759.62 , -294951
0.00306664 , 1758.14 , -295855
0.00306164 , 1756.66 , -296760
0.00305664 , 1755.17 , -297665
0.00305164 , 1753.68 , -298570
0.00304664 , 1752.19 , -299474
0.00304164 , 1750.69 , -300379
0.00303664 , 1749.18 , -301284
0.00303164 , 1747.67 , -302189
0.00302664 , 1746.16 , -303093
0.00302164 , 1744.64 , -303998
0.00301664 , 1743.12 , -304903
0.00301164 , 1741.59 , -305808
0.00300664 , 1740.06 , -306712
0.00300164 , 1738.53 , -307617
0.00299664 , 1736.99 , -308522
0.00299164 , 1735.44 , -309427
0.00298664 , 1733.89 , -310331
0.00298164 , 1732.34 , -311236
0.00297664 , 1730.78 , -312141
0.00297164 , 1729.22 , -313046
0.00296664 , 1727.65 , -313950
0.00296164 , 1726.08 , -314855
0.00295664 , 1724.5 , -315760
0.00295164 , 1722.92 , -316665
0.00294664 , 1721.33 , -317570
0.00294164 , 1719.74 , -318474
0.00293664 , 1718.15 , -319379
0.00293164 , 1716.55 , -320284
0.00292664 , 1714.95 , -321189
0.00292164 , 1713.34 , -322093
0.00291664 , 1711.72 , -322998
0.00291164 , 1710.11 , -323903
0.00290664 , 1708.49 , -324808
0.00290164 , 1706.86 , -325712
0.00289664 , 1705.23 , -326617
0.00289164 , 1703.59 , -327522
0.00288664 , 1701.95 , -328427
0.00288164 , 1700.31 , -329331
0.00287664 , 1698.66 , -330236
0.00287164 , 1697.01 , -331141
0.00286664 , 1695.35 , -332046
0.00286164 , 1693.69 , -332950
0.00285664 , 1692.02 , -333855
0.00285164 , 1690.35 , -334760
0.00284664 , 1688.67 , -335665
0.00284164 , 1686.99 , -336569
0.00283664 , 1685.31 , -337474
0.00283164 , 1683.62 , -338379
0.00282664 , 1681.92 , -339284
0.00282164 , 1680.22 , -340188
0.00281664 , 1678.52 , -341093
0.00281164 , 1676.81 , -341998
0.00280664 , 1675.1 , -342903
0.00280164 , 1673.38 , -343807
0.00279664 , 1671.66 , -344712
0.00279164 , 1669.94 , -345617
0.00278664 , 1668.21 , -346522
0.00278164 , 1666.47 , -347426
0.00277664 , 1664.73 , -348331
0.00277164 , 1662.99 , -349236
0.00276664 , 1661.24 , -350141
0.00276164 , 1659.49 , -351045
0.00275664 , 1657.73 , -351950
0.00275164 , 1655.97 , -352855
0.00274664 , 1654.2 , -353760
0.00274164 , 1652.43 , -354664
0.00273664 , 1650.65 , -355569
0.00273164 , 1648.87 , -356474
0.00272664 , 1647.09 , -357379
0.00272164 , 1645.3 , -358284
0.00271664 , 1643.51 , -359188
0.00271164 , 1641.71 , -360093
0.00270664 , 1639.9 , -360998
0.00270164 , 1638.1 , -361903
0.00269664 , 1636.29 , -362807
0.00269164 , 1634.47 , -363712
0.00268664 , 1632.65 , -364617
0.00268164 , 1630.82 , -365522
0.00267664 , 1628.99 , -366426
0.00267164 , 1627.16 , -367331
0.00266664 , 1625.32 , -368236
0.00266164 , 1623.48 , -369141
0.00265664 , 1621.63 , -370045
0.00265164 , 1619.78 , -370950
0.00264664 , 1617.92 , -371855
0.00264164 , 1616.06 , -372760
0.00263664 , 1614.19 , -373664
0.00263164 , 1612.32 , -374569
0.00262664 , 1610.45 , -375474
0.00262164 , 1608.57 , -376379
0.00261664 , 1606.68 , -377283
0.00261164 , 1604.79 , -378188
0.00260664 , 1602.9 , -379093
0.00260164 , 1601 , -379998
0.00259664 , 1599.1 , -380902
0.00259164 , 1597.19 , -381807
0.00258664 , 1595.28 , -382712
0.00258164 , 1593.37 , -383617
0.00257664 , 1591.45 , -384521
0.00257164 , 1589.52 , -385426
0.00256664 , 1587.59 , -386331
0.00256164 , 1585.66 , -387236
0.00255664 , 1583.72 , -388140
0.00255164 , 1581.78 , -389045
0.00254664 , 1579.83 , -389950
0.00254164 , 1577.88 , -390855
0.00253664 , 1575.92 , -391760
0.00253164 , 1573.96 , -392664
0.00252664 , 1571.99 , -393569
0.00252164 , 1570.02 , -394474
0.00251664 , 1568.05 , -395379
0.00251164 , 1566.07 , -396283
0.00250664 , 1564.09 , -397188
0.00250164 , 1562.1 , -398093
0.00249664 , 1560.11 , -398998
0.00249164 , 1558.11 , -399902
0.00248664 , 1556.11 , -400807
0.00248164 , 1554.1 , -401712
0.00247664 , 1552.09 , -402617
0.00247164 , 1550.07 , -403521
0.00246664 , 1548.05 , -404426
0.00246164 , 1546.03 , -405331
0.00245664 , 1544 , -406236
0.00245164 , 1541.97 , -407140
0.00244664 , 1539.93 , -408045
0.00244164 , 1537.89 , -408950
0.00243664 , 1535.84 , -409855
0.00243164 , 1533.79 , -410759
0.00242664 , 1531.73 , -411664
0.00242164 , 1529.67 , -412569
0.00241664 , 1527.61 , -413474
0.00241164 , 1525.54 , -414378
0.00240664 , 1523.46 , -415283
0.00240164 , 1521.38 , -416188
0.00239664 , 1519.3 , -417093
0.00239164 , 1517.21 , -417997
0.00238664 , 1515.12 , -418902
0.00238164 , 1513.02 , -419807
0.00237664 , 1510.92 , -420712
0.00237164 , 1508.82 , -421616
0.00236664 , 1506.71 , -422521
0.00236164 , 1504.59 , -423426
0.00235664 , 1502.47 , -424331
0.00235164 , 1500.35 , -425236
0.00234664 , 1498.22 , -426140
0.00234164 , 1496.09 , -427045
0.00233664 , 1493.95 , -427950
0.00233164 , 1491.81 , -428854
0.00232664 , 1489.66 , -429759
0.00232164 , 1487.51 , -430664
0.00231664 , 1485.35 , -431569
0.00231164 , 1483.19 , -432474
0.00230664 , 1481.03 , -433378
0.00230164 , 1478.86 , -434283
0.00229664 , 1476.69 , -435188
0.00229164 , 1474.51 , -436093
0.00228664 , 1472.33 , -436997
0.00228164 , 1470.14 , -437902
0.00227664 , 1467.95 , -438807
0.00227164 , 1465.75 , -439712
0.00226664 , 1463.55 , -440616
0.00226164 , 1461.34 , -441521
0.00225664 , 1459.13 , -442426
0.00225164 , 1456.92 , -443331
0.00224664 , 1454.7 , -444235
0.00224164 , 1452.48 , -445140
0.00223664 , 1450.25 , -446045
0.00223164 , 1448.02 , -446950
0.00222664 , 1445.78 , -447854
0.00222164 , 1443.54 , -448759
0.00221664 , 1441.29 , -449664
0.00221164 , 1439.04 , -450569
0.00220664 , 1436.79 , -451473
0.00220164 , 1434.53 , -452378
0.00219664 , 1432.26 , -453283
0.00219164 , 1429.99 , -454188
0.00218664 , 1427.72 , -455092
0.00218164 , 1425.44 , -455997
0.00217664 , 1423.16 , -456902
0.00217164 , 1420.87 , -457807
0.00216664 , 1418.58 , -458712
0.00216164 , 1416.29 , -459616
0.00215664 , 1413.99 , -460521
0.00215164 , 1411.68 , -461426
0.00214664 , 1409.37 , -462330
0.00214164 , 1407.06 , -463235
0.00213664 , 1404.74 , -464140
0.00213164 , 1402.42 , -465045
0.00212664 , 1400.09 , -465950
0.00212164 , 1397.76 , -466854
0.00211664 , 1395.42 , -467759
0.00211164 , 1393.08 , -468664
0.00210664 , 1390.73 , -469569
0.00210164 , 1388.38 , -470473
0.00209664 , 1386.03 , -471378
0.00209164 , 1383.67 , -472283
0.00208664 , 1381.31 , -473188
0.00208164 , 1378.94 , -474092
0.00207664 , 1376.57 , -474997
0.00207164 , 1374.19 , -475902
0.00206664 , 1371.81 , -476807
0.00206164 , 1369.42 , -477711
0.00205664 , 1367.03 , -478616
0.00205164 , 1364.63 , -479521
0.00204664 , 1362.23 , -480426
0.00204164 , 1359.83 , -481330
0.00203664 , 1357.42 , -482235
0.00203164 , 1355.01 , -483140
0.00202664 , 1352.59 , -484045
0.00202164 , 1350.17 , -484949
0.00201664 , 1347.74 , -485854
0.00201164 , 1345.31 , -486759
0.00200664 , 1342.87 , -487664
0.00200164 , 1340.43 , -488568
0.00199664 , 1337.99 , -489473
0.00199164 , 1335.54 , -490378
0.00198664 , 1333.08 , -491283
0.00198164 , 1330.62 , -492187
0.00197664 , 1328.16 , -493092
0.00197164 , 1325.69 , -493997
0.00196664 , 1323.22 , -494902
0.00196164 , 1320.75 , -495806
0.00195664 , 1318.26 , -496711
0.00195164 , 1315.78 , -497616
0.00194664 , 1313.29 , -498521
0.00194164 , 1310.79 , -499426
0.00193664 , 1308.29 , -500330
0.00193164 , 1305.79 , -501235
0.00192664 , 1303.28 , -502140
0.00192164 , 1300.77 , -503045
0.00191664 , 1298.25 , -503949
0.00191164 , 1295.73 , -504854
0.00190664 , 1293.2 , -505759
0.00190164 , 1290.67 , -506664
0.00189664 , 1288.14 , -507568
0.00189164 , 1285.6 , -508473
0.00188664 , 1283.05 , -509378
0.00188164 , 1280.5 , -510283
0.00187664 , 1277.95 , -511187
0.00187164 , 1275.39 , -512092
0.00186664 , 1272.83 , -512997
0.00186164 , 1270.26 , -513902
0.00185664 , 1267.69 , -514806
0.00185164 , 1265.11 , -515711
0.00184664 , 1262.53 , -516616
0.00184164 , 1259.95 , -517521
0.00183664 , 1257.36 , -518425
0.00183164 , 1254.76 , -519330
0.00182664 , 1252.16 , -520235
0.00182164 , 1249.56 , -521140
0.00181664 , 1246.95 , -522044
0.00181164 , 1244.34 , -522949
0.00180664 , 1241.72 , -523854
0.00180164 , 1239.1 , -524759
0.00179664 , 1236.47 , -525663
0.00179164 , 1233.84 , -526568
0.00178664 , 1231.21 , -527473
0.00178164 , 1228.57 , -528378
0.00177664 , 1225.92 , -529282
0.00177164 , 1223.28 , -530187
0.00176664 , 1220.62 , -531092
0.00176164 , 1217.96 , -531997
0.00175664 , 1215.3 , -532902
0.00175164 , 1212.64 , -533806
0.00174664 , 1209.96 , -534711
0.00174164 , 1207.29 , -535616
0.00173664 , 1204.61 , -536521
0.00173164 , 1201.92 , -537425
0.00172664 , 1199.23 , -538330
0.00172164 , 1196.54 , -539235
0.00171664 , 1193.84 , -540140
0.00171164 , 1191.14 , -541044
0.00170664 , 1188.43 , -541949
0.00170164 , 1185.72 , -542854
0.00169664 , 1183 , -543759
0.00169164 , 1180.28 , -544663
0.00168664 , 1177.56 , -545568
0.00168164 , 1174.83 , -546473
0.00167664 , 1172.09 , -547378
0.00167164 , 1169.35 , -548282
0.00166664 , 1166.61 , -549187
0.00166164 , 1163.86 , -550092
0.00165664 , 1161.11 , -550997
0.00165164 , 1158.35 , -551901
0.00164664 , 1155.59 , -552806
0.00164164 , 1152.82 , -553711
0.00163664 , 1150.05 , -554616
0.00163164 , 1147.28 , -555520
0.00162664 , 1144.5 , -556425
0.00162164 , 1141.71 , -557330
0.00161664 , 1138.92 , -558235
0.00161164 , 1136.13 , -559139
0.00160664 , 1133.33 , -560044
0.00160164 , 1130.53 , -560949
0.00159664 , 1127.72 , -561854
0.00159164 , 1124.91 , -562758
0.00158664 , 1122.09 , -563663
0.00158164 , 1119.27 , -564568
0.00157664 , 1116.45 , -565473
0.00157164 , 1113.62 , -566378
0.00156664 , 1110.79 , -567282
0.00156164 , 1107.95 , -568187
0.00155664 , 1105.1 , -569092
0.00155164 , 1102.26 , -569997
0.00154664 , 1099.4 , -570901
0.00154164 , 1096.55 , -571806
0.00153664 , 1093.69 , -572711
0.00153164 , 1090.82 , -573616
0.00152664 , 1087.95 , -574520
0.00152164 , 1085.07 , -575425
0.00151664 , 1082.19 , -576330
0.00151164 , 1079.31 , -577235
0.00150664 , 1076.42 , -578139
0.00150164 , 1073.53 , -579044
0.00149664 , 1070.63 , -579949
0.00149164 , 1067.73 , -580854
